<Actel_Data_File>
    <format name="NVM File" version="01.00.00"/>
    <header>
        <die>
            MPFS095T
        </die>
        <family>
            PolarFireSoC
        </family>
        <module>
            snvm
        </module>
        <package>
            FCSG325
        </package>
        <version>
            2025.1.0.14
        </version>
    </header>
    <nvm>
        <region name="INIT_STAGE_2_3_SNVM_CLIENT" address="0x000000" retrieveAddressFromFile="false" size="8280" format="HEX" type="PlainText NonAuthenticated" wordSize="8" numberWords="8280" memFile="designer\PROC_SUBSYSTEM\PROC_SUBSYSTEM_init_stage_2_3_snvm.mem" memType="Microsemi Binary 32-bit" memFileTimeStamp="" clientType="public" program="true">
            <write_protect/>
            <fabric_accessible/>
            <fabric_accessible_as_rom/>
            <mss_accessible/>
            <mss_accessible_as_rom/>
            00409812000000206574030083140100040000008800010005100000edf4
            0000831c010004000000e5dc0300b2000100221001009210010041040000
            82000200e174030041440000221003002608030006180300aa1002002e10
            0200cddc02008200020041440000221003002a100200260803004a000300
            061803000c000300ae100200500403001324020005200000261402008114
            0100911000006df40000e370020024fc03005c000100051c010063000200
            e7080000a10c0300091c0100636c0200e71800000800010022100100b200
            01009210010002240100fd54010013140000052000004104000015d40200
            08000100c190010093140200f4fc03001314000005200000a9d400000800
            010022100100b20001000224010093140200f4fc03009210010013140000
            452000004104000015f402000800010093140000f03c0000131400000520
            00008dd400000800010093140000f03c0000131400004520000099f40000
            0800010093140000f03c00001314000085200000a9d40000080001002210
            0100b2000100921001000224010093140000f03c000013140000c5200000
            4104000015f4020002400200b20001002210010092100100022401004104
            0000820002005c040100414400002210030006180300260803004a000300
            051c01002a100200633c0200e7000000953c0300091c010063580200e718
            00000804010022100100b200010092100100022401001314000005280000
            4104000079cc020008040100131400000528000075ec0000aa1002000800
            010013140000452800004dec00004214000045340200b200010022100100
            9210010002240100410400008200020008040100131400000528000069ec
            0000aa10020008000100131400004528000041ec00002a24020008000100
            22240000131400008528000051cc00004214000033a40100a90000000800
            0100b39001009900000013140000c52800008dec000062140000c1dc0200
            024002000114010075fc02005c0401004144000022100300260803000618
            0300051c01002a100200ae10020063100200e70800009d3c0300091c0100
            63680200e718000008040100131400000528000029cc00002214020081fc
            0000630c00009500000002400200b2000100221001009210010041040000
            8200020008040100c2140000c1040200131400000528000039ec00000800
            01009354030004040000131400004528000009ec0000d1fc020008040100
            93d40300f53c000013140000052800003dec000008000100935403008400
            000093d40300f53c000013140000452800003dcc00000800010093540300
            0404000093d40300f53c0000131400008528000039ec0000080001009354
            03008404000013140000c528000009ec000069fc02000240020059fc0200
            014400004a20030052100300560803000638030022300300262803004e18
            0300fd1c0100aa2802002e2402003228020063cc0300b700000002400200
            039002004a00000085100100631000009410000049000300891c01006378
            0000f4080000039402000a000000b3500200240400001314000005280000
            95c4000033900300a4000000635800000a00000093100300f4fc030033d0
            0300a4000000039402000a000000a2140200131400000528000091c40000
            039402000a00000013140000052800003de4000063040000852000000240
            0200b5a00200839c02000a00000093640100490000008a240000931c0200
            0728000093d00100f9000000be64020033500000940000004e1402004210
            0000b9c4000041100200637400000a00000013100100f4fc030069300200
            42100000410002004e140200a21402000de400004e14020015e40000c1dc
            020049300200fddc0200839c02000a00000093640100390000008a240000
            931c02000728000013e4010079000000be640200b3500200240400004e14
            0200e2100000a9c40000e1100200635c00000a08000093100300f4fc0300
            e930020093d00300f43c00004e140200a61402003dc400004e14020005e4
            0000e34c000095e00300f200010062100100d210010042240100b2240100
            22280100922801000584010082000200c9300200e9fc0200014400002230
            030009180100b754000000c0010013140200010c02000638030026280300
            0218030015cc0000051801008114010013140200010c0200ddd400000118
            01008514010013140200010c0200f1f40000051801008914010013140200
            010c0200c9f40000011801008d14010013140200010c0200e1d400001314
            0200810c02008518010013180000a0080000b714000000c00100f5f80000
            b75400000000020013140200810c02009314020005e0020079e40000b71c
            00000a0000003e180300b71000000a000000b21c0100fd5c00003e180300
            b21c0100e3300100f0f8030013140200010c0200261803008dec00009314
            0100f500000013140200010c0200cdec0000cddc02000000000000000000
            0d2800000d280000489401006cb001006f80000057bc010072b001006484
            000000000000000000000000000000000000000000000000000000000000
            000000000000000000000000000000000000000000000000000000000000
            000000000000000000000000000000000000000000000000000000000000
            000000000000000000000000000000000000000000000000000000000000
            000000000000000000000000000000000000000000000000000000000000
            000000000000000000000000000000000000000000000000000000000000
            000000000000000000000000000000000000000000000000000000000000
            000000000000000000000000000000000000000000000000000000000000
            000000000000000000000000000000000000000000000000000000000000
            000000000000000000000000000000000000000000000000000000000000
            000000000000000000000000000000000000000000000000000000000000
            000000000000000000000000000000000000000000000000000000000000
            000000000000000000000000000000000000000000000000000000000000
            000000000000000000000000000000000000000000000000000000000000
            000000000000000000000000000000000000000000000000000000000000
            000000000000000000000000000000000000000000000000000000000000
            000000000000000000000000000000000000000000000000000000000000
            000000000000000000000000000000000000000000000000000000000000
            000000000000000000000000000000000000000000000000000000000000
            000000000000000000000000000000000000000000000000000000000000
            000000000000000000000000000000000000000000000000000000000000
            000000000000000000000000000000000000000000000000000000000000
            000000000000000000000000000000000000000000000000000000000000
            000000000000000000000000000000000000000000000000000000000000
            000000000000000000000000000000000000000000000000000000000000
            000000000000000000000000000000000000000000000000000000000000
            000000000000000000000000000000000000000000000000000000000000
            000000000000000000000000000000000000000000000000000000000000
            000000000000000000000000000000000000000000000000000000000000
            000000000000000000000000000000000000000000000000000000000000
            000000000000000000000000000000000000000000000000000000000000
            000000000000000000000000000000000000000000000000000000000000
            000000000000000000000000000000000000000000000000000000000000
            000000000000000000000000000000000000000000000000000000000000
            000000000000000000000000000000000000000000000000000000000000
            000000000000000000000000000000000000000000000000000000000000
            000000000000000000000000000000000000000000000000000000000000
            000000000000000000000000000000000000000000000000000000000000
            000000000000000000000000000000000000000000000000000000000000
            000000000000000000000000000000000000000000000000000000000000
            000000000000000000000000000000000000000000000000000000000000
            000000000000000000000000000000000000000000000000000000000000
            000000000000000000000000000000000000000000000000000000000000
            000000000000000000000000000000000000000000000000000000000000
            000000000000000000000000000000000000000000000000000000000000
            000000000000000000000000000000000000000000000000000000000000
            000000000000000000000000000000000000000000000000000000000000
            000000000000000000000000000000000000000000000000000000000000
            000000000000000000000000000000000000000000000000000000000000
            000000000000000000000000000000000000000000000000000000000000
            000000000000000000000000000000000000000000000000000000000000
            000000000000000000000000000000000000000000000000000000000000
            000000000000000000000000000000000000000000000000000000000000
            000000000000000000000000000000000000000000000000000000000000
            000000000000000000000000000000000000000000000000000000000000
            000000000000000000000000000000000000000000000000000000000000
            000000000000000000000000000000000000000000000000000000000000
            000000000000000000000000000000000000000000000000000000000000
            000000000000000000000000000000000000000000000000000000000000
            000000000000000000000000000000000000000000000000000000000000
            000000000000000000000000000000000000000000000000000000000000
            000000000000000000000000000000000000000000000000000000000000
            000000000000000000000000000000000000000000000000000000000000
            000000000000000000000000000000000000000000000000000000000000
            000000000000000000000000000000000000000000000000000000000000
            000000000000000000000000000000000000000000000000000000000000
            000000000000000000000000000000000000000000000000000000000000
            000000000000000000000000000000000000000000000000000000000000
            000000000000000000000000000000000000000000000000000000000000
            000000000000000000000000000000000000000000000000000000000000
            000000000000000000000000000000000000000000000000000000000000
            000000000000000000000000000000000000000000000000000000000000
            000000000000000000000000000000000000000000000000000000000000
            000000000000000000000000000000000000000000000000000000000000
            000000000000000000000000000000000000000000000000000000000000
            000000000000000000000000000000000000000000000000004098320040
            984200009c12000000206f000000002001006f000000c01c000000000000
            000000000000000000000000f18002000000000000000000000000000000
            000000000000000000000000000009880200000000000000000000000000
            0000000000000000000000000000000025a8020000000000000000000000
            0000000000000000000000000000000000000000000000000000ad880200
            000000007588020000000000000000000000000000000000000000000000
            000000000000000000000000000000000000000000000000000000000000
            d9a802000000000021b0020000000000a9b002000000000071b002000000
            0000f9b00200000000000598020000000000000000008598020019c40100
            010000001300000000000000130000000000000013000000000000000600
            03000a0803000e10030012180300162003001a2803001e30030022380300
            264003002a4803002e50030032580300366003003a6803003e7003004278
            0300c6000300ca080300ce100300d2180300d6200300da280300de300300
            e2380300e6400300ea480300ee500300f2580300f6600300fa680300fe70
            03007394000020d00000f394000010d00000ef00000080440100a9980200
            19c40100060003000a0803000e10030012180300162003001a2803001e30
            030022380300264003002a4803002e50030032580300366003003a680300
            3e70030042780300c6000300ca080300ce100300d2180300d6200300da28
            0300de300300e2380300e6400300ea480300ee500300f2580300f6600300
            fa680300fe700300ef000000e02c01001198020019c40100060003000a08
            03000e10030012180300162003001a2803001e3003002238030026400300
            2a4803002e50030032580300366003003a6803003e70030042780300c600
            0300ca080300ce100300d2180300d6200300da280300de300300e2380300
            e6400300ea480300ee500300f2580300f6600300fa680300fe700300ef00
            0000600c01007db0020019c40100060003000a0803000e10030012180300
            162003001a2803001e30030022380300264003002a4803002e5003003258
            0300366003003a6803003e70030042780300c6000300ca080300ce100300
            d2180300d6200300da280300de300300e2380300e6400300ea480300ee50
            0300f2580300f6600300fa680300fe700300ef00000080340100a5b00200
            19c40100060003000a0803000e10030012180300162003001a2803001e30
            030022380300264003002a4803002e50030032580300366003003a680300
            3e70030042780300c6000300ca080300ce100300d2180300d6200300da28
            0300de300300e2380300e6400300ea480300ee500300f2580300f6600300
            fa680300fe700300ef000000602401000db0020019c40100060003000a08
            03000e10030012180300162003001a2803001e3003002238030026400300
            2a4803002e50030032580300366003003a6803003e70030042780300c600
            0300ca080300ce100300d2180300d6200300da280300de300300e2380300
            e6400300ea480300ee500300f2580300f6600300fa680300fe700300ef00
            0000e0100100f588020019c40100060003000a0803000e10030012180300
            162003001a2803001e30030022380300264003002a4803002e5003003258
            0300366003003a6803003e70030042780300c6000300ca080300ce100300
            d2180300d6200300da280300de300300e2380300e6400300ea480300ee50
            0300f2580300f6600300fa680300fe700300ef000000800401005d880200
            19c40100060003000a0803000e10030012180300162003001a2803001e30
            030022380300264003002a4803002e50030032580300366003003a680300
            3e70030042780300c6000300ca080300ce100300d2180300d6200300da28
            0300de300300e2380300e6400300ea480300ee500300f2580300f6600300
            fa680300fe700300ef00000000f400008588020019c40100060003000a08
            03000e10030012180300162003001a2803001e3003002238030026400300
            2a4803002e50030032580300366003003a6803003e70030042780300c600
            0300ca080300ce100300d2180300d6200300da280300de300300e2380300
            e6400300ea480300ee500300f2580300f6600300fa680300fe700300ef00
            000080e0000029a8020019c40100060003000a0803000e10030012180300
            162003001a2803001e30030022380300264003002a4803002e5003003258
            0300366003003a6803003e70030042780300c6000300ca080300ce100300
            d2180300d6200300da280300de300300e2380300e6400300ea480300ee50
            0300f2580300f6600300fa680300fe700300ef00000000d00000d1a00200
            19c40100060003000a0803000e10030012180300162003001a2803001e30
            030022380300264003002a4803002e50030032580300366003003a680300
            3e70030042780300c6000300ca080300ce100300d2180300d6200300da28
            0300de300300e2380300e6400300ea480300ee500300f2580300f6600300
            fa680300fe700300ef00000080bc00007980020019c40100060003000a08
            03000e10030012180300162003001a2803001e3003002238030026400300
            2a4803002e50030032580300366003003a6803003e70030042780300c600
            0300ca080300ce100300d2180300d6200300da280300de300300e2380300
            e6400300ea480300ee500300f2580300f6600300fa680300fe700300ef00
            000000ac0000a180020019c40100060003000a0803000e10030012180300
            162003001a2803001e30030022380300264003002a4803002e5003003258
            0300366003003a6803003e70030042780300c6000300ca080300ce100300
            d2180300d6200300da280300de300300e2380300e6400300ea480300ee50
            0300f2580300f6600300fa680300fe700300ef0000008098000009800200
            8200010012040100a204010032080100c2080100520c0100e20c01007210
            01008250010012540100a254010032580100c2580100525c0100e25c0100
            726001008620010016240100a624010036280100c6280100562c0100e62c
            0100763001008670010016740100a674010036780100c6780100567c0100
            e67c0100098401007300000020c000000000000000000000000000000000
            000000000000000000000000000000000000000000000000000000000000
            000000007340010000c000007340010040c0000097000000000000009300
            020080dc0200f388000010c0000093c80300120000006350020002080000
            f388000050c0000093c8030032000000050c01006374020062000000f388
            000050c0000093c80300c2fc0300170c000000000000130c000023d40200
            63580200621000003980020097080000000000009308020042d002007340
            020052c00000171c000000000000131c000047ac0100971c000000000000
            931c0200c7a8010017200000000000001320000048a8010063200000f700
            000063180200070400009700000000000000e70002006020000097440000
            0000000093040200c1a003003180000013040200011003006f000000005c
            00000240020086080200931c0200010c02001320020001100200630c0200
            0704000081800000931c02000108020013200200010c0200632802000704
            00000da00000931c0200011002001320020001100200630c020007040000
            15800000171c000000000000131c0000c7900100971c000000000000931c
            020047900100132002000108020063140000f7000000630c020007040000
            0d800000960002008200020063bc0100f8080000b3a00100f800000093e0
            03003800000063240100100c00002380020007000000911c0000e3340300
            07fc03008200020063840100f8080000b3a00100f800000093e003003800
            0000632c01001004000083a00000070000002380020017040000911c0000
            111c0000e328030007fc0300118002000180020082000200414400002210
            0300061803001310000000200000f3dc000044c00000e1a00000371c0300
            000800009318020001080200839c000087fc030003980000c7fc03009808
            0100d4080100b7140100000800003e5c0200b3dc0000f7000000b2580200
            b65c020098040300dc0403007390000044c00000b2000100221001004104
            000082000200414400000618030061a00000199c01001c4c0100b2000100
            f56c02001c4c030041040000820002006350010005180000061400000504
            0200ad1c0100634c0000f5000000518002008d1c0100634c0000f5000000
            d9fc02009d1c0100634c0000f500000071dc0200e11c0100634c0000f500
            0000bda00200e51c0100634c0000f500000095a00200e91c0100634c0000
            f5000000ad800200ed1c0100634c0000f500000085800200f11c0100634c
            0000f500000099a00200f51c0100634c0000f5000000b1800200f91c0100
            634c0000f500000089800200c11c0100634c0000f500000025a00200c51c
            0100634c0000f50000003d800200f39c000040d00000f39c000030d00000
            f39c000050c00000f39c000000d00000f39c000000c00000f39c000010d0
            000002400200820002005184020082000200414400002914010006180300
            21a000008200020082000200820002008200020082000200820002008200
            020082000200820002008200020082000200018002000c04030082000200
            08040100820002003638020033780000be00000033f80100ce000000038c
            000005000000b20c0200930c0300f3fc030033cc010073000000338c0100
            c3040000238000006500000082000200080401007134020033540100b500
            00008200020023400000b500000082000200035400000500000082000200
            3638020033780000be00000033f80100ce000000034c000005000000b20c
            0200930c0300f3fc030033cc010073000000338c0100c304000023400000
            650000008200020003540000050000007134020033540100b50000008200
            020023000000b50000008200020003140000050000008200020036380200
            33780000be00000033f80100ce000000030c000005000000b20c0200930c
            0300f3fc030033cc010073000000338c0100c30400002300000065000000
            8200020003140000050000007134020033540100b5000000820002001184
            0300024002009d1c010063cc0300d700000002400200899c0100638c0100
            f600000002400200493403009d1c010063ac0300d7200000899c010063e0
            0100f620000001440000521003001328020085000000223003004e180300
            2a100200ae2402005214020093d40100f63c000006380300262803004a20
            0300b21002003624020051dc0000935403005400010093d4030085fc0100
            b39403002504000013140200c90000008dfc000052140200238000003404
            000085fc0000936400000504000008000100936403000904000031140000
            8ddc000093dc0100750000006164020013d40100f53c0000161400003394
            0300a9000000630c0200a400000002400200630c0000f900000002400200
            080001004114000081dc00000924020019a403002308000004000000f200
            010062100100d210010042240100b2240100222801000584010082000200
            08000100111400000ddc0000f1fc0200820002001d940300024002008db4
            03000240020082000200880001004114000039dc00000524020000009c32
            00009c42000006c001010000000202b000000000000203b0030000000000
            06c021010000000202b000000000000203b001000000020000d0000000f0
            <crc>
                448f
            </crc>
        </region>
        <region name="INIT_STAGE_1_SNVM_CLIENT" address="0x0000ca" retrieveAddressFromFile="false" size="4368" format="HEX" type="PlainText NonAuthenticated" wordSize="8" numberWords="4368" memFile="designer\PROC_SUBSYSTEM\PROC_SUBSYSTEM_init_stage_1_snvm.mem" memType="Microsemi Binary 32-bit" memFileTimeStamp="" clientType="public" program="true">
            <write_protect/>
            <fabric_accessible/>
            <fabric_accessible_as_rom/>
            <mss_accessible/>
            <mss_accessible_as_rom/>
            000010c032000000000f11c0b80b0000ff3f0c1200000020000000000000
            000000000000000000000000000000000000000000000000000000000000
            000000000000000000000000000000000000000000000000000000000000
            000000000000000000000000000000000000000000000000000000000000
            000000000000000000000000000000000000000000000000000000000000
            000000000000000000000000000000000000000000000000000000000000
            000000000000000000000000000000000000000000000000000000000000
            000000000000000000000000000000000000000000000000000000000000
            000000000000000000000000000000000000000000000000000000000000
            000000000000000000000000000000000000000000000000000000000000
            000000000000000000000000000000000000000000000000000000000000
            000000000000000000000000000000000000000000000000000000000000
            000000000000000000000000000000000000000000000000000000000000
            000000000000000000000000000000000000000000000000000000000000
            000000000000000000000000000000000000000000000000000000000000
            000000000000000000000000000000000000000000000000000000000000
            000000000000000000000000000000000000000000000000000000000000
            000000000000000000000000000000000000000000000000000000000000
            000000000000000000000000000000000000000000000000000000000000
            000000000000000000000000000000000000000000000000000000000000
            000000000000000000000000000000000000000000000000000000000000
            000000000000000000000000000000000000000000000000000000000000
            000000000000000000000000000000000000000000000000000000000000
            000000000000000000000000000000000000000000000000000000000000
            000000000000000000000000000000000000000000000000000000000000
            000000000000000000000000000000000000000000000000000000000000
            000000000000000000000000000000000000000000000000000000000000
            000000000000000000000000000000000000000000000000000000000000
            000000000000000000000000000000000000000000000000000000000000
            000000000000000000000000000000000000000000000000000000000000
            000000000000000000000000000000000000000000000000000000000000
            000000000000000000000000000000000000000000000000000000000000
            000000000000000000000000000000000000000000000000000000000000
            000000000000000000000000000000000000000000000000000000000000
            000000000000000000000000000000000000000000000000000000000000
            000000000000000000000000000000000000000000000000000000000000
            000000000000000000000000000000000000000000000000000000000000
            000000000000000000000000000000000000000000000000000000000000
            000000000000000000000000000000000000000000000000000000000000
            000000000000000000000000000000000000000000000000000000000000
            000000000000000000000000000000000000000000000000000000000000
            000000000000000000000000000000000000000000000000000000000000
            000000000000000000000000000000000000000000000000000000000000
            000000000000000000000000000000000000000000000000000000000000
            000000000000000000000000000000000000000000000000000000000000
            000000000000000000000000000000000000000000000000000000000000
            000000000000000000000000000000000000000000000000000000000000
            000000000000000000000000000000000000000000000000000000000000
            000000000000000000000000000000000000000000000000000000000000
            000000000000000000000000000000000000000000000000000000000000
            000000000000000000000000000000000000000000000000000000000000
            000000000000000000000000000000000000000000000000000000000000
            000000000000000000000000000000000000000000000000000000000000
            000000000000000000000000000000000000000000000000000000000000
            000000000000000000000000000000000000000000000000000000000000
            000000000000000000000000000000000000000000000000000000000000
            000000000000000000000000000000000000000000000000000000000000
            000000000000000000000000000000000000000000000000000000000000
            000000000000000000000000000000000000000000000000000000000000
            000000000000000000000000000000000000000000000000000000000000
            000000000000000000000000000000000000000000000000000000000000
            000000000000000000000000000000000000000000000000000000000000
            000000000000000000000000000000000000000000000000000000000000
            000000000000000000000000000000000000000000000000000000000000
            000000000000000000000000000000000000000000000000000000000000
            000000000000000000000000000000000000000000000000000000000000
            000000000000000000000000000000000000000000000000000000000000
            000000000000000000000000000000000000000000000000000000000000
            000000000000000000000000000000000000000000000000000000000000
            000000000000000000000000000000000000000000000000000000000000
            000000000000000000000000000000000000000000000000000000000000
            000000000000000000000000000000000000000000000000000000000000
            000000000000000000000000000000000000000000000000000000000000
            000000000000000000000000000000000000000000000000000000000000
            000000000000000000000000000000000000000000000000000000000000
            000000000000000000000000000000000000000000000000000000000000
            000000000000000000000000000000000000000000000000000000000000
            000000000000000000000000000000000000000000000000000000000000
            000000000000000000000000000000000000000000000000000000000000
            000000000000000000000000000000000000000000000000000000000000
            000000000000000000000000000000000000000000000000000000000000
            000000000000000000000000000000000000000000000000000000000000
            000000000000000000000000000000000000000000000000000000000000
            000000000000000000000000000000000000000000000000000000000000
            000000000000000000000000000000000000000000000000000000000000
            000000000000000000000000000000000000000000000000000000000000
            000000000000000000000000000000000000000000000000000000000000
            000000000000000000000000000000000000000000000000000000000000
            000000000000000000000000000000000000000000000000000000000000
            000000000000000000000000000000000000000000000000000000000000
            000000000000000000000000000000000000000000000000000000000000
            000000000000000000000000000000000000000000000000000000000000
            000000000000000000000000000000000000000000000000000000000000
            000000000000000000000000000000000000000000000000000000000000
            000000000000000000000000000000000000000000000000000000000000
            000000000000000000000000000000000000000000000000000000000000
            000000000000000000000000000000000000000000000000000000000000
            000000000000000000000000000000000000000000000000000000000000
            000000000000000000000000000000000000000000000000000000000000
            000000000000000000000000000000000000000000000000000000000000
            000000000000000000000000000000000000000000000000000000000000
            000000000000000000000000000000000000000000000000000000000000
            000000000000000000000000000000000000000000000000000000000000
            000000000000000000000000000000000000000000000000000000000000
            000000000000000000000000000000000000000000000000000000000000
            000000000000000000000000000000000000000000000000000000000000
            000000000000000000000000000000000000000000000000000000000000
            000000000000000000000000000000000000000000000000000000000000
            000000000000000000000000000000000000000000000000000000000000
            000000000000000000000000000000000000000000000000000000000000
            000000000000000000000000000000000000000000000000000000000000
            000000000000000000000000000000000000000000000000000000000000
            000000000000000000000000000000000000000000000000000000000000
            000000000000000000000000000000000000000000000000000000000000
            000000000000000000000000000000000000000000000000000000000000
            000000000000000000000000000000000000000000000000000000000000
            000000000000000000000000000000000000000000000000000000000000
            000000000000000000000000000000000000000000000000000000000000
            000000000000000000000000000000000000000000000000000000000000
            000000000000000000000000000000000000000000000000000000000000
            000000000000000000000000000000000000000000000000000000000000
            000000000000000000000000000000000000000000000000000000000000
            000000000000000000000000000000000000000000000000000000000000
            000000000000000000000000000000000000000000000000000000000000
            000000000000000000000000000000000000000000000000000000000000
            000000000000000000000000000000000000000000000000000000000000
            000000000000000000000000000000000000000000000000000000000000
            000000000000000000000000000000000000000000000000000000000000
            000000000000000000000000000000000000000000000000000000000000
            000000000000000000000000000000000000000000000000000000000000
            000000000000000000000000000000000000000000000000000000000000
            000000000000000000000000000000000000000000000000000000000000
            000000000000000000000000000000000000000000000000000000000000
            000000000000000000000000000000000000000000000000000000000000
            000000000000000000000000000000000000000000000000000000000000
            000000000000000000000000000000000000000000000000000000000000
            000000000000000000000000000000000000000000000000000000000000
            00000000000000000000ff3f0c32ff3f0c42ff3f0c520100002000000000
            000000000000000000000000000000000000000000000000000000000000
            000000000000000000000000000000000000000000000000000000000000
            000000000000000000000000000000000000000000000000000000000000
            000000000000000000000000000000000000000000000000000000000000
            00000000ff3f0c62ff3f0c72000006c001000000000202b0000000000200
            06c004040404020200b048600003020006c000000700020200b04c610003
            020006c004040404020200b048a00003020006c000000700020200b04ca1
            0003000006c000000000030000e000000000
            <crc>
                c9bb
            </crc>
        </region>
    </nvm>
</Actel_Data_File>
